# LED_current (A)	PM_NSB (W)	PM_CAM (W)
1.000000000000000021e-02 5.716225165562915526e-05 1.999999999999999879e-11
1.200000000000000025e-02 6.496357615894038969e-05 1.999999999999999879e-11
1.600000000000000033e-02 8.069470198675497685e-05 3.000000000000000626e-11
2.000000000000000042e-02 9.649867549668875969e-05 3.092715231788079258e-11
2.599999999999999881e-02 1.216887417218543235e-04 4.006622516556290950e-11
3.300000000000000155e-02 1.496026490066224869e-04 5.158940397350992677e-11
4.200000000000000261e-02 1.872086092715231941e-04 7.000000000000000384e-11
5.399999999999999939e-02 2.369210526315789086e-04 9.000000000000001233e-11
6.900000000000000577e-02 2.986947019867548683e-04 1.099999999999999950e-10
8.799999999999999489e-02 3.800000000000000209e-04 1.400000000000000077e-10
1.120000000000000023e-01 4.779999999999999635e-04 1.800000000000000247e-10
1.429999999999999882e-01 6.049999999999999606e-04 2.278145695364238684e-10
1.829999999999999960e-01 7.679999999999999110e-04 2.900000000000000842e-10
2.330000000000000127e-01 9.687417218543043721e-04 3.600000000000000493e-10
2.969999999999999862e-01 1.220966887417218680e-03 4.599999999999999108e-10
3.790000000000000036e-01 1.539999999999999702e-03 5.800000000000001685e-10
4.829999999999999849e-01 1.935999999999999570e-03 7.223178807947021000e-10
6.149999999999999911e-01 2.423052980132450653e-03 9.099999999999997527e-10
7.840000000000000302e-01 3.030000000000000575e-03 1.139999999999999786e-09
1.000000000000000000e+00 3.769999999999999480e-03 1.420000000000000059e-09
