# LED_current (A)	PM_NSB (W)	PM_CAM (W)
1.000000000000000021e-02 5.706821192052981344e-05 1.999999999999999879e-11
1.200000000000000025e-02 6.486250000000001129e-05 1.999999999999999879e-11
1.600000000000000033e-02 8.051184210526318187e-05 3.000000000000000626e-11
2.000000000000000042e-02 9.630198675496687852e-05 3.993377483443708566e-11
2.599999999999999881e-02 1.214999999999999853e-04 4.999999999999998890e-11
3.300000000000000155e-02 1.494033112582781502e-04 6.000000000000001253e-11
4.200000000000000261e-02 1.869999999999999917e-04 7.000000000000000384e-11
5.399999999999999939e-02 2.367203947368421140e-04 9.000000000000001233e-11
6.900000000000000577e-02 2.984165562913907430e-04 1.200000000000000251e-10
8.799999999999999489e-02 3.800000000000000209e-04 1.499999999999999990e-10
1.120000000000000023e-01 4.779999999999999635e-04 1.899337748344371105e-10
1.429999999999999882e-01 6.049999999999999606e-04 2.400000000000000501e-10
1.829999999999999960e-01 7.679999999999999110e-04 2.999999999999999980e-10
2.330000000000000127e-01 9.680066225165560867e-04 3.800000000000000319e-10
2.969999999999999862e-01 1.219999999999999947e-03 4.800000000000001002e-10
3.790000000000000036e-01 1.539999999999999919e-03 5.999999999999999960e-10
4.829999999999999849e-01 1.935715231788078926e-03 7.600000000000000639e-10
6.149999999999999911e-01 2.422450331125828183e-03 9.500000000000002349e-10
7.840000000000000302e-01 3.030000000000000575e-03 1.190000000000000027e-09
1.000000000000000000e+00 3.769999999999999480e-03 1.480331125827814586e-09
