# LED_current (A)	PM_NSB (W)	PM_CAM (W)
1.000000000000000021e-02 5.560000000000000299e-05 -1.324503311258278111e-13
1.200000000000000025e-02 6.335364238410593905e-05 0.000000000000000000e+00
1.600000000000000033e-02 7.903708609271522785e-05 0.000000000000000000e+00
2.000000000000000042e-02 9.476821192052980146e-05 0.000000000000000000e+00
2.599999999999999881e-02 1.199006622516556010e-04 0.000000000000000000e+00
3.300000000000000155e-02 1.477298013245033153e-04 0.000000000000000000e+00
4.200000000000000261e-02 1.852655629139072688e-04 -6.622516556291390553e-14
5.399999999999999939e-02 2.348642384105959998e-04 0.000000000000000000e+00
6.900000000000000577e-02 2.964384105960265223e-04 0.000000000000000000e+00
8.799999999999999489e-02 3.779999999999999181e-04 0.000000000000000000e+00
1.120000000000000023e-01 4.750000000000001617e-04 0.000000000000000000e+00
1.429999999999999882e-01 6.030000000000001288e-04 0.000000000000000000e+00
1.829999999999999960e-01 7.650000000000000550e-04 0.000000000000000000e+00
2.330000000000000127e-01 9.649999999999997122e-04 0.000000000000000000e+00
2.969999999999999862e-01 1.216999999999999766e-03 0.000000000000000000e+00
3.790000000000000036e-01 1.535999999999999822e-03 0.000000000000000000e+00
4.829999999999999849e-01 1.930999999999999774e-03 0.000000000000000000e+00
6.149999999999999911e-01 2.416960264900661851e-03 0.000000000000000000e+00
7.840000000000000302e-01 3.019999999999999681e-03 0.000000000000000000e+00
1.000000000000000000e+00 3.759999999999999454e-03 0.000000000000000000e+00
