# LED_current (A)	PM_NSB (W)	PM_CAM (W)
1.000000000000000021e-02 5.518476821192052126e-05 1.999999999999999879e-11
1.200000000000000025e-02 6.297019867549668334e-05 1.999999999999999879e-11
1.600000000000000033e-02 7.859933774834434506e-05 3.000000000000000626e-11
2.000000000000000042e-02 9.430000000000000177e-05 3.000000000000000626e-11
2.599999999999999881e-02 1.193894039735099628e-04 3.999999999999999758e-11
3.300000000000000155e-02 1.471874172185430650e-04 5.190789473684210220e-11
4.200000000000000261e-02 1.845993377483444008e-04 7.000000000000000384e-11
5.399999999999999939e-02 2.341880794701986794e-04 9.000000000000001233e-11
6.900000000000000577e-02 2.957006622516555102e-04 1.100000000000000467e-10
8.799999999999999489e-02 3.770000000000000564e-04 1.426490066225165622e-10
1.120000000000000023e-01 4.746821192052982268e-04 1.799999999999999988e-10
1.429999999999999882e-01 6.019999999999999961e-04 2.299999999999999554e-10
1.829999999999999960e-01 7.640000000000000306e-04 2.996688741721854190e-10
2.330000000000000127e-01 9.640000000000002300e-04 3.700000000000000665e-10
2.969999999999999862e-01 1.215000000000000151e-03 4.700000000000001347e-10
3.790000000000000036e-01 1.533999999999999990e-03 5.999999999999999960e-10
4.829999999999999849e-01 1.928807947019867955e-03 7.499999999999998916e-10
6.149999999999999911e-01 2.414099337748344329e-03 9.400000000000000627e-10
7.840000000000000302e-01 3.020000000000000549e-03 1.179999999999999854e-09
1.000000000000000000e+00 3.759867549668873422e-03 1.469999999999999887e-09
