# LED_current (A)	PM_NSB (W)	PM_CAM (W)
1.000000000000000021e-02 5.553642384105961872e-05 1.999999999999999879e-11
1.200000000000000025e-02 6.328874172185427278e-05 1.999999999999999879e-11
1.600000000000000033e-02 7.899668874172185854e-05 2.999999999999999980e-11
2.000000000000000042e-02 9.472781456953639149e-05 3.986842105263158310e-11
2.599999999999999881e-02 1.198198675496688488e-04 4.986754966887415212e-11
3.300000000000000155e-02 1.476914473684210415e-04 6.000000000000001253e-11
4.200000000000000261e-02 1.851834437086092211e-04 7.000000000000000384e-11
5.399999999999999939e-02 2.347986842105263003e-04 9.000000000000001233e-11
6.900000000000000577e-02 2.963874172185429782e-04 1.152980132450331298e-10
8.799999999999999489e-02 3.779999999999999181e-04 1.499999999999999990e-10
1.120000000000000023e-01 4.750000000000001617e-04 1.809271523178808045e-10
1.429999999999999882e-01 6.029337748344372212e-04 2.305921052631578916e-10
1.829999999999999960e-01 7.649999999999999465e-04 2.999999999999999980e-10
2.330000000000000127e-01 9.649999999999997122e-04 3.798675496688741693e-10
2.969999999999999862e-01 1.216052980132450046e-03 4.700662251655629368e-10
3.790000000000000036e-01 1.535317880794701733e-03 5.999999999999999960e-10
4.829999999999999849e-01 1.930185430463575436e-03 7.499999999999998916e-10
6.149999999999999911e-01 2.416185430463576624e-03 9.400000000000000627e-10
7.840000000000000302e-01 3.019999999999999681e-03 1.179999999999999854e-09
1.000000000000000000e+00 3.759999999999999454e-03 1.469999999999999887e-09
