# LED_current (A)	PM_NSB (W)	PM_CAM (W)
1.000000000000000021e-02 5.679470198675497190e-05 9.999999999999999395e-12
1.200000000000000025e-02 6.459999999999998458e-05 1.980582524271844490e-11
1.600000000000000033e-02 8.029867549668874538e-05 1.999999999999999879e-11
2.000000000000000042e-02 9.606973684210526657e-05 3.000000000000000626e-11
2.599999999999999881e-02 1.212178807947020005e-04 4.000000000000000404e-11
3.300000000000000155e-02 1.490993377483443511e-04 4.999999999999997597e-11
4.200000000000000261e-02 1.866973509933774476e-04 6.999999999999999092e-11
5.399999999999999939e-02 2.363562913907284798e-04 8.999999999999996063e-11
6.900000000000000577e-02 2.980927631578946988e-04 1.100000000000000596e-10
8.799999999999999489e-02 3.800000000000000751e-04 1.399999999999999818e-10
1.120000000000000023e-01 4.770264900662250372e-04 1.799999999999999471e-10
1.429999999999999882e-01 6.049999999999999606e-04 2.299999999999999295e-10
1.829999999999999960e-01 7.669999999999999951e-04 2.900000000000000842e-10
2.330000000000000127e-01 9.679999999999997851e-04 3.700000000000002216e-10
2.969999999999999862e-01 1.219907284768211725e-03 4.699999999999999279e-10
3.790000000000000036e-01 1.539000000000000003e-03 5.901960784313724268e-10
4.829999999999999849e-01 1.934662251655628381e-03 7.500000000000000984e-10
6.149999999999999911e-01 2.421112582781457211e-03 9.400000000000000627e-10
7.840000000000000302e-01 3.030000000000000575e-03 1.179999999999999854e-09
1.000000000000000000e+00 3.769999999999999914e-03 1.469999999999999887e-09
